#             t      Re[K1(t)]      Im[K1(t)]
   0.000000e+00  -1.457775e+00   0.000000e+00
   1.000000e-03  -1.457770e+00  -1.457771e-03
   2.000000e-03  -1.457755e+00  -2.915514e-03
   3.000000e-03  -1.457730e+00  -4.373202e-03
   4.000000e-03  -1.457694e+00  -5.830807e-03
   5.000000e-03  -1.457648e+00  -7.288303e-03
   6.000000e-03  -1.457593e+00  -8.745660e-03
   7.000000e-03  -1.457527e+00  -1.020285e-02
   8.000000e-03  -1.457450e+00  -1.165985e-02
   9.000000e-03  -1.457364e+00  -1.311663e-02
   1.000000e-02  -1.457268e+00  -1.457316e-02
   1.100000e-02  -1.457161e+00  -1.602942e-02
   1.200000e-02  -1.457044e+00  -1.748537e-02
   1.300000e-02  -1.456917e+00  -1.894099e-02
   1.400000e-02  -1.456780e+00  -2.039626e-02
   1.500000e-02  -1.456633e+00  -2.185114e-02
   1.600000e-02  -1.456476e+00  -2.330560e-02
   1.700000e-02  -1.456309e+00  -2.475963e-02
   1.800000e-02  -1.456131e+00  -2.621319e-02
   1.900000e-02  -1.455943e+00  -2.766625e-02
   2.000000e-02  -1.455746e+00  -2.911880e-02
   2.100000e-02  -1.455538e+00  -3.057079e-02
   2.200000e-02  -1.455320e+00  -3.202220e-02
   2.300000e-02  -1.455092e+00  -3.347301e-02
   2.400000e-02  -1.454854e+00  -3.492319e-02
   2.500000e-02  -1.454605e+00  -3.637271e-02
   2.600000e-02  -1.454347e+00  -3.782155e-02
   2.700000e-02  -1.454079e+00  -3.926967e-02
   2.800000e-02  -1.453800e+00  -4.071705e-02
   2.900000e-02  -1.453512e+00  -4.216366e-02
   3.000000e-02  -1.453213e+00  -4.360948e-02
   3.100000e-02  -1.452905e+00  -4.505448e-02
   3.200000e-02  -1.452586e+00  -4.649862e-02
   3.300000e-02  -1.452257e+00  -4.794189e-02
   3.400000e-02  -1.451919e+00  -4.938426e-02
   3.500000e-02  -1.451570e+00  -5.082570e-02
   3.600000e-02  -1.451211e+00  -5.226618e-02
   3.700000e-02  -1.450842e+00  -5.370568e-02
   3.800000e-02  -1.450464e+00  -5.514417e-02
   3.900000e-02  -1.450075e+00  -5.658162e-02
   4.000000e-02  -1.449676e+00  -5.801800e-02
   4.100000e-02  -1.449268e+00  -5.945330e-02
   4.200000e-02  -1.448849e+00  -6.088747e-02
   4.300000e-02  -1.448421e+00  -6.232051e-02
   4.400000e-02  -1.447982e+00  -6.375237e-02
   4.500000e-02  -1.447534e+00  -6.518303e-02
   4.600000e-02  -1.447076e+00  -6.661247e-02
   4.700000e-02  -1.446608e+00  -6.804066e-02
   4.800000e-02  -1.446130e+00  -6.946758e-02
   4.900000e-02  -1.445642e+00  -7.089319e-02
   5.000000e-02  -1.445144e+00  -7.231747e-02
   5.100000e-02  -1.444636e+00  -7.374039e-02
   5.200000e-02  -1.444119e+00  -7.516194e-02
   5.300000e-02  -1.443592e+00  -7.658207e-02
   5.400000e-02  -1.443054e+00  -7.800077e-02
   5.500000e-02  -1.442508e+00  -7.941801e-02
   5.600000e-02  -1.441951e+00  -8.083376e-02
   5.700000e-02  -1.441384e+00  -8.224801e-02
   5.800000e-02  -1.440808e+00  -8.366071e-02
   5.900000e-02  -1.440222e+00  -8.507185e-02
   6.000000e-02  -1.439627e+00  -8.648140e-02
   6.100000e-02  -1.439021e+00  -8.788933e-02
   6.200000e-02  -1.438406e+00  -8.929562e-02
   6.300000e-02  -1.437781e+00  -9.070025e-02
   6.400000e-02  -1.437147e+00  -9.210318e-02
   6.500000e-02  -1.436503e+00  -9.350440e-02
   6.600000e-02  -1.435849e+00  -9.490387e-02
   6.700000e-02  -1.435186e+00  -9.630157e-02
   6.800000e-02  -1.434513e+00  -9.769748e-02
   6.900000e-02  -1.433830e+00  -9.909157e-02
   7.000000e-02  -1.433138e+00  -1.004838e-01
   7.100000e-02  -1.432436e+00  -1.018742e-01
   7.200000e-02  -1.431725e+00  -1.032627e-01
   7.300000e-02  -1.431004e+00  -1.046492e-01
   7.400000e-02  -1.430274e+00  -1.060339e-01
   7.500000e-02  -1.429534e+00  -1.074165e-01
   7.600000e-02  -1.428785e+00  -1.087972e-01
   7.700000e-02  -1.428026e+00  -1.101758e-01
   7.800000e-02  -1.427258e+00  -1.115524e-01
   7.900000e-02  -1.426480e+00  -1.129269e-01
   8.000000e-02  -1.425693e+00  -1.142994e-01
   8.100000e-02  -1.424897e+00  -1.156697e-01
   8.200000e-02  -1.424091e+00  -1.170379e-01
   8.300000e-02  -1.423276e+00  -1.184039e-01
   8.400000e-02  -1.422451e+00  -1.197677e-01
   8.500000e-02  -1.421618e+00  -1.211294e-01
   8.600000e-02  -1.420775e+00  -1.224888e-01
   8.700000e-02  -1.419922e+00  -1.238459e-01
   8.800000e-02  -1.419061e+00  -1.252007e-01
   8.900000e-02  -1.418190e+00  -1.265532e-01
   9.000000e-02  -1.417310e+00  -1.279034e-01
   9.100000e-02  -1.416421e+00  -1.292513e-01
   9.200000e-02  -1.415523e+00  -1.305968e-01
   9.300000e-02  -1.414615e+00  -1.319398e-01
   9.400000e-02  -1.413699e+00  -1.332805e-01
   9.500000e-02  -1.412773e+00  -1.346187e-01
   9.600000e-02  -1.411838e+00  -1.359544e-01
   9.700000e-02  -1.410895e+00  -1.372876e-01
   9.800000e-02  -1.409942e+00  -1.386183e-01
   9.900000e-02  -1.408980e+00  -1.399465e-01
   1.000000e-01  -1.408009e+00  -1.412721e-01
   1.010000e-01  -1.407029e+00  -1.425952e-01
   1.020000e-01  -1.406041e+00  -1.439156e-01
   1.030000e-01  -1.405043e+00  -1.452334e-01
   1.040000e-01  -1.404036e+00  -1.465485e-01
   1.050000e-01  -1.403021e+00  -1.478610e-01
   1.060000e-01  -1.401997e+00  -1.491708e-01
   1.070000e-01  -1.400964e+00  -1.504778e-01
   1.080000e-01  -1.399922e+00  -1.517821e-01
   1.090000e-01  -1.398871e+00  -1.530837e-01
   1.100000e-01  -1.397812e+00  -1.543825e-01
   1.110000e-01  -1.396744e+00  -1.556784e-01
   1.120000e-01  -1.395667e+00  -1.569716e-01
   1.130000e-01  -1.394581e+00  -1.582619e-01
   1.140000e-01  -1.393487e+00  -1.595493e-01
   1.150000e-01  -1.392384e+00  -1.608338e-01
   1.160000e-01  -1.391273e+00  -1.621154e-01
   1.170000e-01  -1.390153e+00  -1.633941e-01
   1.180000e-01  -1.389024e+00  -1.646699e-01
   1.190000e-01  -1.387887e+00  -1.659426e-01
   1.200000e-01  -1.386742e+00  -1.672124e-01
   1.210000e-01  -1.385588e+00  -1.684791e-01
   1.220000e-01  -1.384425e+00  -1.697429e-01
   1.230000e-01  -1.383254e+00  -1.710035e-01
   1.240000e-01  -1.382075e+00  -1.722611e-01
   1.250000e-01  -1.380887e+00  -1.735156e-01
   1.260000e-01  -1.379691e+00  -1.747670e-01
   1.270000e-01  -1.378487e+00  -1.760152e-01
   1.280000e-01  -1.377275e+00  -1.772603e-01
   1.290000e-01  -1.376054e+00  -1.785022e-01
   1.300000e-01  -1.374825e+00  -1.797409e-01
   1.310000e-01  -1.373587e+00  -1.809764e-01
   1.320000e-01  -1.372342e+00  -1.822087e-01
   1.330000e-01  -1.371089e+00  -1.834377e-01
   1.340000e-01  -1.369827e+00  -1.846634e-01
   1.350000e-01  -1.368557e+00  -1.858858e-01
   1.360000e-01  -1.367279e+00  -1.871050e-01
   1.370000e-01  -1.365994e+00  -1.883208e-01
   1.380000e-01  -1.364700e+00  -1.895332e-01
   1.390000e-01  -1.363398e+00  -1.907423e-01
   1.400000e-01  -1.362088e+00  -1.919480e-01
   1.410000e-01  -1.360771e+00  -1.931504e-01
   1.420000e-01  -1.359445e+00  -1.943492e-01
   1.430000e-01  -1.358112e+00  -1.955447e-01
   1.440000e-01  -1.356771e+00  -1.967367e-01
   1.450000e-01  -1.355422e+00  -1.979252e-01
   1.460000e-01  -1.354065e+00  -1.991102e-01
   1.470000e-01  -1.352700e+00  -2.002917e-01
   1.480000e-01  -1.351328e+00  -2.014697e-01
   1.490000e-01  -1.349948e+00  -2.026442e-01
   1.500000e-01  -1.348561e+00  -2.038151e-01
   1.510000e-01  -1.347166e+00  -2.049824e-01
   1.520000e-01  -1.345763e+00  -2.061461e-01
   1.530000e-01  -1.344353e+00  -2.073062e-01
   1.540000e-01  -1.342935e+00  -2.084626e-01
   1.550000e-01  -1.341510e+00  -2.096155e-01
   1.560000e-01  -1.340078e+00  -2.107646e-01
   1.570000e-01  -1.338638e+00  -2.119101e-01
   1.580000e-01  -1.337190e+00  -2.130519e-01
   1.590000e-01  -1.335735e+00  -2.141900e-01
   1.600000e-01  -1.334273e+00  -2.153243e-01
   1.610000e-01  -1.332804e+00  -2.164549e-01
   1.620000e-01  -1.331327e+00  -2.175818e-01
   1.630000e-01  -1.329843e+00  -2.187049e-01
   1.640000e-01  -1.328352e+00  -2.198241e-01
   1.650000e-01  -1.326854e+00  -2.209396e-01
   1.660000e-01  -1.325349e+00  -2.220513e-01
   1.670000e-01  -1.323837e+00  -2.231591e-01
   1.680000e-01  -1.322317e+00  -2.242631e-01
   1.690000e-01  -1.320791e+00  -2.253632e-01
   1.700000e-01  -1.319257e+00  -2.264595e-01
   1.710000e-01  -1.317717e+00  -2.275518e-01
   1.720000e-01  -1.316169e+00  -2.286403e-01
   1.730000e-01  -1.314615e+00  -2.297248e-01
   1.740000e-01  -1.313054e+00  -2.308054e-01
   1.750000e-01  -1.311486e+00  -2.318820e-01
   1.760000e-01  -1.309911e+00  -2.329547e-01
   1.770000e-01  -1.308330e+00  -2.340234e-01
   1.780000e-01  -1.306741e+00  -2.350881e-01
   1.790000e-01  -1.305146e+00  -2.361488e-01
   1.800000e-01  -1.303545e+00  -2.372054e-01
   1.810000e-01  -1.301937e+00  -2.382581e-01
   1.820000e-01  -1.300322e+00  -2.393067e-01
   1.830000e-01  -1.298701e+00  -2.403513e-01
   1.840000e-01  -1.297073e+00  -2.413917e-01
   1.850000e-01  -1.295438e+00  -2.424281e-01
   1.860000e-01  -1.293798e+00  -2.434604e-01
   1.870000e-01  -1.292150e+00  -2.444886e-01
   1.880000e-01  -1.290497e+00  -2.455127e-01
   1.890000e-01  -1.288837e+00  -2.465327e-01
   1.900000e-01  -1.287171e+00  -2.475485e-01
   1.910000e-01  -1.285498e+00  -2.485601e-01
   1.920000e-01  -1.283820e+00  -2.495676e-01
   1.930000e-01  -1.282135e+00  -2.505709e-01
   1.940000e-01  -1.280444e+00  -2.515700e-01
   1.950000e-01  -1.278746e+00  -2.525649e-01
   1.960000e-01  -1.277043e+00  -2.535556e-01
   1.970000e-01  -1.275334e+00  -2.545421e-01
   1.980000e-01  -1.273618e+00  -2.555244e-01
   1.990000e-01  -1.271897e+00  -2.565024e-01
   2.000000e-01  -1.270169e+00  -2.574761e-01
   2.010000e-01  -1.268436e+00  -2.584456e-01
   2.020000e-01  -1.266697e+00  -2.594108e-01
   2.030000e-01  -1.264952e+00  -2.603717e-01
   2.040000e-01  -1.263201e+00  -2.613283e-01
   2.050000e-01  -1.261445e+00  -2.622806e-01
   2.060000e-01  -1.259682e+00  -2.632286e-01
   2.070000e-01  -1.257914e+00  -2.641723e-01
   2.080000e-01  -1.256141e+00  -2.651116e-01
   2.090000e-01  -1.254361e+00  -2.660466e-01
   2.100000e-01  -1.252577e+00  -2.669772e-01
   2.110000e-01  -1.250786e+00  -2.679035e-01
   2.120000e-01  -1.248990e+00  -2.688254e-01
   2.130000e-01  -1.247189e+00  -2.697429e-01
   2.140000e-01  -1.245382e+00  -2.706561e-01
   2.150000e-01  -1.243570e+00  -2.715648e-01
   2.160000e-01  -1.241752e+00  -2.724691e-01
   2.170000e-01  -1.239929e+00  -2.733690e-01
   2.180000e-01  -1.238101e+00  -2.742645e-01
   2.190000e-01  -1.236267e+00  -2.751555e-01
   2.200000e-01  -1.234428e+00  -2.760422e-01
   2.210000e-01  -1.232584e+00  -2.769243e-01
   2.220000e-01  -1.230735e+00  -2.778020e-01
   2.230000e-01  -1.228881e+00  -2.786753e-01
   2.240000e-01  -1.227022e+00  -2.795441e-01
   2.250000e-01  -1.225157e+00  -2.804084e-01
   2.260000e-01  -1.223288e+00  -2.812682e-01
   2.270000e-01  -1.221414e+00  -2.821235e-01
   2.280000e-01  -1.219535e+00  -2.829743e-01
   2.290000e-01  -1.217650e+00  -2.838207e-01
   2.300000e-01  -1.215761e+00  -2.846625e-01
   2.310000e-01  -1.213868e+00  -2.854998e-01
   2.320000e-01  -1.211969e+00  -2.863325e-01
   2.330000e-01  -1.210066e+00  -2.871608e-01
   2.340000e-01  -1.208158e+00  -2.879845e-01
   2.350000e-01  -1.206245e+00  -2.888037e-01
   2.360000e-01  -1.204328e+00  -2.896183e-01
   2.370000e-01  -1.202406e+00  -2.904283e-01
   2.380000e-01  -1.200479e+00  -2.912339e-01
   2.390000e-01  -1.198548e+00  -2.920348e-01
   2.400000e-01  -1.196613e+00  -2.928312e-01
   2.410000e-01  -1.194673e+00  -2.936230e-01
   2.420000e-01  -1.192729e+00  -2.944102e-01
   2.430000e-01  -1.190780e+00  -2.951928e-01
   2.440000e-01  -1.188827e+00  -2.959709e-01
   2.450000e-01  -1.186870e+00  -2.967443e-01
   2.460000e-01  -1.184908e+00  -2.975132e-01
   2.470000e-01  -1.182942e+00  -2.982775e-01
   2.480000e-01  -1.180972e+00  -2.990371e-01
   2.490000e-01  -1.178998e+00  -2.997921e-01
   2.500000e-01  -1.177020e+00  -3.005426e-01
   2.510000e-01  -1.175038e+00  -3.012884e-01
   2.520000e-01  -1.173051e+00  -3.020296e-01
   2.530000e-01  -1.171061e+00  -3.027661e-01
   2.540000e-01  -1.169067e+00  -3.034981e-01
   2.550000e-01  -1.167069e+00  -3.042254e-01
   2.560000e-01  -1.165067e+00  -3.049480e-01
   2.570000e-01  -1.163061e+00  -3.056661e-01
   2.580000e-01  -1.161051e+00  -3.063795e-01
   2.590000e-01  -1.159038e+00  -3.070882e-01
   2.600000e-01  -1.157020e+00  -3.077923e-01
   2.610000e-01  -1.154999e+00  -3.084918e-01
   2.620000e-01  -1.152975e+00  -3.091866e-01
   2.630000e-01  -1.150947e+00  -3.098767e-01
   2.640000e-01  -1.148915e+00  -3.105622e-01
   2.650000e-01  -1.146879e+00  -3.112431e-01
   2.660000e-01  -1.144841e+00  -3.119193e-01
   2.670000e-01  -1.142798e+00  -3.125908e-01
   2.680000e-01  -1.140753e+00  -3.132577e-01
   2.690000e-01  -1.138703e+00  -3.139199e-01
   2.700000e-01  -1.136651e+00  -3.145774e-01
   2.710000e-01  -1.134595e+00  -3.152303e-01
   2.720000e-01  -1.132536e+00  -3.158785e-01
   2.730000e-01  -1.130474e+00  -3.165220e-01
   2.740000e-01  -1.128408e+00  -3.171609e-01
   2.750000e-01  -1.126339e+00  -3.177951e-01
   2.760000e-01  -1.124267e+00  -3.184246e-01
   2.770000e-01  -1.122192e+00  -3.190495e-01
   2.780000e-01  -1.120114e+00  -3.196696e-01
   2.790000e-01  -1.118033e+00  -3.202852e-01
   2.800000e-01  -1.115949e+00  -3.208960e-01
   2.810000e-01  -1.113862e+00  -3.215022e-01
   2.820000e-01  -1.111772e+00  -3.221037e-01
   2.830000e-01  -1.109679e+00  -3.227005e-01
   2.840000e-01  -1.107584e+00  -3.232927e-01
   2.850000e-01  -1.105485e+00  -3.238802e-01
   2.860000e-01  -1.103384e+00  -3.244630e-01
   2.870000e-01  -1.101280e+00  -3.250412e-01
   2.880000e-01  -1.099173e+00  -3.256147e-01
   2.890000e-01  -1.097064e+00  -3.261835e-01
   2.900000e-01  -1.094952e+00  -3.267477e-01
   2.910000e-01  -1.092837e+00  -3.273072e-01
   2.920000e-01  -1.090720e+00  -3.278620e-01
   2.930000e-01  -1.088601e+00  -3.284122e-01
   2.940000e-01  -1.086479e+00  -3.289577e-01
   2.950000e-01  -1.084354e+00  -3.294985e-01
   2.960000e-01  -1.082227e+00  -3.300348e-01
   2.970000e-01  -1.080098e+00  -3.305663e-01
   2.980000e-01  -1.077966e+00  -3.310932e-01
   2.990000e-01  -1.075832e+00  -3.316154e-01
   3.000000e-01  -1.073696e+00  -3.321330e-01
   3.010000e-01  -1.071557e+00  -3.326460e-01
   3.020000e-01  -1.069417e+00  -3.331543e-01
   3.030000e-01  -1.067274e+00  -3.336580e-01
   3.040000e-01  -1.065129e+00  -3.341570e-01
   3.050000e-01  -1.062982e+00  -3.346514e-01
   3.060000e-01  -1.060833e+00  -3.351412e-01
   3.070000e-01  -1.058682e+00  -3.356263e-01
   3.080000e-01  -1.056529e+00  -3.361068e-01
   3.090000e-01  -1.054374e+00  -3.365827e-01
   3.100000e-01  -1.052217e+00  -3.370540e-01
   3.110000e-01  -1.050058e+00  -3.375207e-01
   3.120000e-01  -1.047897e+00  -3.379827e-01
   3.130000e-01  -1.045735e+00  -3.384402e-01
   3.140000e-01  -1.043571e+00  -3.388930e-01
   3.150000e-01  -1.041405e+00  -3.393412e-01
   3.160000e-01  -1.039237e+00  -3.397849e-01
   3.170000e-01  -1.037068e+00  -3.402239e-01
   3.180000e-01  -1.034897e+00  -3.406584e-01
   3.190000e-01  -1.032725e+00  -3.410883e-01
   3.200000e-01  -1.030551e+00  -3.415135e-01
   3.210000e-01  -1.028375e+00  -3.419343e-01
   3.220000e-01  -1.026198e+00  -3.423504e-01
   3.230000e-01  -1.024019e+00  -3.427620e-01
   3.240000e-01  -1.021839e+00  -3.431690e-01
   3.250000e-01  -1.019658e+00  -3.435715e-01
   3.260000e-01  -1.017475e+00  -3.439694e-01
   3.270000e-01  -1.015291e+00  -3.443628e-01
   3.280000e-01  -1.013106e+00  -3.447516e-01
   3.290000e-01  -1.010920e+00  -3.451359e-01
   3.300000e-01  -1.008732e+00  -3.455157e-01
   3.310000e-01  -1.006543e+00  -3.458910e-01
   3.320000e-01  -1.004353e+00  -3.462617e-01
   3.330000e-01  -1.002161e+00  -3.466279e-01
   3.340000e-01  -9.999691e-01  -3.469896e-01
   3.350000e-01  -9.977758e-01  -3.473468e-01
   3.360000e-01  -9.955814e-01  -3.476995e-01
   3.370000e-01  -9.933860e-01  -3.480478e-01
   3.380000e-01  -9.911897e-01  -3.483915e-01
   3.390000e-01  -9.889925e-01  -3.487308e-01
   3.400000e-01  -9.867944e-01  -3.490656e-01
   3.410000e-01  -9.845954e-01  -3.493959e-01
   3.420000e-01  -9.823956e-01  -3.497218e-01
   3.430000e-01  -9.801950e-01  -3.500432e-01
   3.440000e-01  -9.779937e-01  -3.503602e-01
   3.450000e-01  -9.757917e-01  -3.506727e-01
   3.460000e-01  -9.735889e-01  -3.509808e-01
   3.470000e-01  -9.713855e-01  -3.512845e-01
   3.480000e-01  -9.691815e-01  -3.515838e-01
   3.490000e-01  -9.669769e-01  -3.518787e-01
   3.500000e-01  -9.647717e-01  -3.521692e-01
   3.510000e-01  -9.625660e-01  -3.524552e-01
   3.520000e-01  -9.603598e-01  -3.527369e-01
   3.530000e-01  -9.581531e-01  -3.530142e-01
   3.540000e-01  -9.559460e-01  -3.532872e-01
   3.550000e-01  -9.537385e-01  -3.535558e-01
   3.560000e-01  -9.515306e-01  -3.538200e-01
   3.570000e-01  -9.493224e-01  -3.540798e-01
   3.580000e-01  -9.471138e-01  -3.543354e-01
   3.590000e-01  -9.449050e-01  -3.545866e-01
   3.600000e-01  -9.426960e-01  -3.548335e-01
   3.610000e-01  -9.404867e-01  -3.550760e-01
   3.620000e-01  -9.382772e-01  -3.553143e-01
   3.630000e-01  -9.360676e-01  -3.555482e-01
   3.640000e-01  -9.338579e-01  -3.557779e-01
   3.650000e-01  -9.316480e-01  -3.560033e-01
   3.660000e-01  -9.294381e-01  -3.562244e-01
   3.670000e-01  -9.272282e-01  -3.564412e-01
   3.680000e-01  -9.250182e-01  -3.566538e-01
   3.690000e-01  -9.228083e-01  -3.568621e-01
   3.700000e-01  -9.205985e-01  -3.570662e-01
   3.710000e-01  -9.183887e-01  -3.572661e-01
   3.720000e-01  -9.161790e-01  -3.574618e-01
   3.730000e-01  -9.139695e-01  -3.576532e-01
   3.740000e-01  -9.117602e-01  -3.578404e-01
   3.750000e-01  -9.095511e-01  -3.580235e-01
   3.760000e-01  -9.073422e-01  -3.582023e-01
   3.770000e-01  -9.051335e-01  -3.583770e-01
   3.780000e-01  -9.029252e-01  -3.585475e-01
   3.790000e-01  -9.007172e-01  -3.587139e-01
   3.800000e-01  -8.985095e-01  -3.588761e-01
   3.810000e-01  -8.963022e-01  -3.590342e-01
   3.820000e-01  -8.940953e-01  -3.591882e-01
   3.830000e-01  -8.918888e-01  -3.593380e-01
   3.840000e-01  -8.896828e-01  -3.594837e-01
   3.850000e-01  -8.874773e-01  -3.596254e-01
   3.860000e-01  -8.852724e-01  -3.597629e-01
   3.870000e-01  -8.830679e-01  -3.598964e-01
   3.880000e-01  -8.808641e-01  -3.600258e-01
   3.890000e-01  -8.786608e-01  -3.601512e-01
   3.900000e-01  -8.764582e-01  -3.602725e-01
   3.910000e-01  -8.742562e-01  -3.603897e-01
   3.920000e-01  -8.720549e-01  -3.605030e-01
   3.930000e-01  -8.698543e-01  -3.606122e-01
   3.940000e-01  -8.676545e-01  -3.607174e-01
   3.950000e-01  -8.654554e-01  -3.608186e-01
   3.960000e-01  -8.632572e-01  -3.609159e-01
   3.970000e-01  -8.610597e-01  -3.610091e-01
   3.980000e-01  -8.588631e-01  -3.610985e-01
   3.990000e-01  -8.566674e-01  -3.611838e-01
   4.000000e-01  -8.544725e-01  -3.612652e-01
   4.010000e-01  -8.522786e-01  -3.613427e-01
   4.020000e-01  -8.500857e-01  -3.614163e-01
   4.030000e-01  -8.478937e-01  -3.614859e-01
   4.040000e-01  -8.457027e-01  -3.615517e-01
   4.050000e-01  -8.435128e-01  -3.616136e-01
   4.060000e-01  -8.413239e-01  -3.616716e-01
   4.070000e-01  -8.391361e-01  -3.617257e-01
   4.080000e-01  -8.369494e-01  -3.617760e-01
   4.090000e-01  -8.347639e-01  -3.618224e-01
   4.100000e-01  -8.325795e-01  -3.618650e-01
   4.110000e-01  -8.303962e-01  -3.619038e-01
   4.120000e-01  -8.282142e-01  -3.619388e-01
   4.130000e-01  -8.260334e-01  -3.619700e-01
   4.140000e-01  -8.238539e-01  -3.619974e-01
   4.150000e-01  -8.216757e-01  -3.620211e-01
   4.160000e-01  -8.194987e-01  -3.620410e-01
   4.170000e-01  -8.173231e-01  -3.620571e-01
   4.180000e-01  -8.151489e-01  -3.620695e-01
   4.190000e-01  -8.129760e-01  -3.620781e-01
   4.200000e-01  -8.108046e-01  -3.620831e-01
   4.210000e-01  -8.086345e-01  -3.620844e-01
   4.220000e-01  -8.064659e-01  -3.620819e-01
   4.230000e-01  -8.042988e-01  -3.620758e-01
   4.240000e-01  -8.021332e-01  -3.620660e-01
   4.250000e-01  -7.999691e-01  -3.620526e-01
   4.260000e-01  -7.978066e-01  -3.620355e-01
   4.270000e-01  -7.956456e-01  -3.620148e-01
   4.280000e-01  -7.934862e-01  -3.619905e-01
   4.290000e-01  -7.913284e-01  -3.619626e-01
   4.300000e-01  -7.891723e-01  -3.619311e-01
   4.310000e-01  -7.870178e-01  -3.618960e-01
   4.320000e-01  -7.848650e-01  -3.618573e-01
