#             t      Re[K1(t)]      Im[K1(t)]
   0.000000e+00  -1.457775e+00   0.000000e+00
   1.000000e-03  -1.457770e+00   4.618463e-18
   2.000000e-03  -1.457755e+00   1.587963e-18
   3.000000e-03  -1.457730e+00   1.060307e-18
   4.000000e-03  -1.457694e+00   7.802250e-19
   5.000000e-03  -1.457648e+00  -2.459943e-20
   6.000000e-03  -1.457593e+00   3.833055e-19
   7.000000e-03  -1.457527e+00  -1.056849e-19
   8.000000e-03  -1.457450e+00   1.709977e-19
   9.000000e-03  -1.457364e+00  -2.163450e-19
   1.000000e-02  -1.457268e+00   1.030123e-19
   1.100000e-02  -1.457161e+00   1.842357e-19
   1.200000e-02  -1.457044e+00   1.743883e-19
   1.300000e-02  -1.456917e+00   2.509218e-19
   1.400000e-02  -1.456780e+00   1.546191e-19
   1.500000e-02  -1.456633e+00   2.791448e-19
   1.600000e-02  -1.456476e+00   1.620955e-19
   1.700000e-02  -1.456309e+00   1.993163e-19
   1.800000e-02  -1.456131e+00  -1.021630e-19
   1.900000e-02  -1.455943e+00   1.619317e-19
   2.000000e-02  -1.455746e+00  -6.667725e-20
   2.100000e-02  -1.455538e+00   6.283201e-20
   2.200000e-02  -1.455320e+00   3.262682e-20
   2.300000e-02  -1.455092e+00  -5.624159e-20
   2.400000e-02  -1.454853e+00   3.098299e-20
   2.500000e-02  -1.454605e+00   2.198646e-19
   2.600000e-02  -1.454347e+00  -7.667322e-20
   2.700000e-02  -1.454078e+00  -1.015189e-19
   2.800000e-02  -1.453800e+00   1.248504e-20
   2.900000e-02  -1.453511e+00  -8.039511e-20
   3.000000e-02  -1.453213e+00   7.754111e-20
   3.100000e-02  -1.452904e+00  -8.089908e-20
   3.200000e-02  -1.452585e+00   6.599735e-20
   3.300000e-02  -1.452256e+00  -4.488130e-20
   3.400000e-02  -1.451918e+00  -9.299667e-20
   3.500000e-02  -1.451569e+00  -1.780885e-19
   3.600000e-02  -1.451210e+00  -1.130465e-19
   3.700000e-02  -1.450841e+00  -1.322115e-19
   3.800000e-02  -1.450462e+00  -1.473915e-19
   3.900000e-02  -1.450073e+00  -2.007946e-19
   4.000000e-02  -1.449675e+00  -1.611003e-19
   4.100000e-02  -1.449266e+00   1.825135e-20
   4.200000e-02  -1.448847e+00  -2.160138e-19
   4.300000e-02  -1.448418e+00  -1.442553e-19
   4.400000e-02  -1.447980e+00  -2.254413e-19
   4.500000e-02  -1.447531e+00  -1.658431e-19
   4.600000e-02  -1.447073e+00  -2.102206e-19
   4.700000e-02  -1.446604e+00  -2.116847e-19
   4.800000e-02  -1.446126e+00  -2.879643e-19
   4.900000e-02  -1.445638e+00  -2.721838e-19
   5.000000e-02  -1.445139e+00  -3.262249e-19
   5.100000e-02  -1.444632e+00  -3.171172e-19
   5.200000e-02  -1.444114e+00  -3.703126e-19
   5.300000e-02  -1.443586e+00  -3.891002e-19
   5.400000e-02  -1.443048e+00  -3.993423e-19
   5.500000e-02  -1.442501e+00  -4.176984e-19
   5.600000e-02  -1.441944e+00  -4.960213e-19
   5.700000e-02  -1.441377e+00  -4.779642e-19
   5.800000e-02  -1.440800e+00  -5.019308e-19
   5.900000e-02  -1.440214e+00  -4.879567e-19
   6.000000e-02  -1.439617e+00  -5.312277e-19
   6.100000e-02  -1.439011e+00  -6.488719e-19
   6.200000e-02  -1.438396e+00  -6.594980e-19
   6.300000e-02  -1.437770e+00  -7.196248e-19
   6.400000e-02  -1.437135e+00  -7.041235e-19
   6.500000e-02  -1.436490e+00  -7.156886e-19
   6.600000e-02  -1.435836e+00  -6.789130e-19
   6.700000e-02  -1.435171e+00  -7.837489e-19
   6.800000e-02  -1.434498e+00  -8.384047e-19
   6.900000e-02  -1.433814e+00  -8.910438e-19
   7.000000e-02  -1.433121e+00  -8.826581e-19
   7.100000e-02  -1.432418e+00  -9.483501e-19
   7.200000e-02  -1.431706e+00  -1.079289e-18
   7.300000e-02  -1.430984e+00  -1.106880e-18
   7.400000e-02  -1.430253e+00  -1.123476e-18
   7.500000e-02  -1.429512e+00  -1.131353e-18
   7.600000e-02  -1.428761e+00  -1.190864e-18
   7.700000e-02  -1.428001e+00  -1.282373e-18
   7.800000e-02  -1.427232e+00  -1.325147e-18
   7.900000e-02  -1.426453e+00  -1.354819e-18
   8.000000e-02  -1.425665e+00  -1.494118e-18
   8.100000e-02  -1.424867e+00  -1.513668e-18
   8.200000e-02  -1.424059e+00  -1.581616e-18
   8.300000e-02  -1.423243e+00  -1.632860e-18
   8.400000e-02  -1.422417e+00  -1.744626e-18
   8.500000e-02  -1.421581e+00  -1.790804e-18
   8.600000e-02  -1.420737e+00  -1.828701e-18
   8.700000e-02  -1.419883e+00  -1.916812e-18
   8.800000e-02  -1.419019e+00  -1.951260e-18
   8.900000e-02  -1.418147e+00  -2.031644e-18
   9.000000e-02  -1.417265e+00  -2.160980e-18
   9.100000e-02  -1.416374e+00  -2.233348e-18
   9.200000e-02  -1.415473e+00  -2.309297e-18
   9.300000e-02  -1.414564e+00  -2.398684e-18
   9.400000e-02  -1.413645e+00  -2.513408e-18
   9.500000e-02  -1.412717e+00  -2.577079e-18
   9.600000e-02  -1.411780e+00  -2.693448e-18
   9.700000e-02  -1.410833e+00  -2.797590e-18
   9.800000e-02  -1.409878e+00  -2.876212e-18
   9.900000e-02  -1.408914e+00  -3.012396e-18
   1.000000e-01  -1.407940e+00  -3.112776e-18
   1.010000e-01  -1.406958e+00  -3.234077e-18
   1.020000e-01  -1.405966e+00  -3.323267e-18
   1.030000e-01  -1.404965e+00  -3.393332e-18
   1.040000e-01  -1.403956e+00  -3.585995e-18
   1.050000e-01  -1.402937e+00  -3.663601e-18
   1.060000e-01  -1.401910e+00  -3.824519e-18
   1.070000e-01  -1.400873e+00  -3.914823e-18
   1.080000e-01  -1.399828e+00  -4.041210e-18
   1.090000e-01  -1.398774e+00  -4.187231e-18
   1.100000e-01  -1.397711e+00  -4.286875e-18
   1.110000e-01  -1.396639e+00  -4.461006e-18
   1.120000e-01  -1.395559e+00  -4.583325e-18
   1.130000e-01  -1.394469e+00  -4.767738e-18
   1.140000e-01  -1.393371e+00  -4.912169e-18
   1.150000e-01  -1.392264e+00  -5.068422e-18
   1.160000e-01  -1.391149e+00  -5.209335e-18
   1.170000e-01  -1.390025e+00  -5.412530e-18
   1.180000e-01  -1.388892e+00  -5.554904e-18
   1.190000e-01  -1.387750e+00  -5.729746e-18
   1.200000e-01  -1.386600e+00  -5.861224e-18
   1.210000e-01  -1.385441e+00  -6.083239e-18
   1.220000e-01  -1.384274e+00  -6.243896e-18
   1.230000e-01  -1.383098e+00  -6.433404e-18
   1.240000e-01  -1.381914e+00  -6.628703e-18
   1.250000e-01  -1.380721e+00  -6.861575e-18
   1.260000e-01  -1.379520e+00  -7.055361e-18
   1.270000e-01  -1.378310e+00  -7.260229e-18
   1.280000e-01  -1.377092e+00  -7.478394e-18
   1.290000e-01  -1.375866e+00  -7.692613e-18
   1.300000e-01  -1.374631e+00  -7.927067e-18
   1.310000e-01  -1.373388e+00  -8.119315e-18
   1.320000e-01  -1.372136e+00  -8.365128e-18
   1.330000e-01  -1.370877e+00  -8.586645e-18
   1.340000e-01  -1.369609e+00  -8.833220e-18
   1.350000e-01  -1.368333e+00  -9.081784e-18
   1.360000e-01  -1.367048e+00  -9.304451e-18
   1.370000e-01  -1.365756e+00  -9.578400e-18
   1.380000e-01  -1.364455e+00  -9.857301e-18
   1.390000e-01  -1.363146e+00  -1.011455e-17
   1.400000e-01  -1.361829e+00  -1.035189e-17
   1.410000e-01  -1.360504e+00  -1.064634e-17
   1.420000e-01  -1.359171e+00  -1.094413e-17
   1.430000e-01  -1.357831e+00  -1.125552e-17
   1.440000e-01  -1.356482e+00  -1.152302e-17
   1.450000e-01  -1.355125e+00  -1.181916e-17
   1.460000e-01  -1.353760e+00  -1.213839e-17
   1.470000e-01  -1.352387e+00  -1.246633e-17
   1.480000e-01  -1.351007e+00  -1.278714e-17
   1.490000e-01  -1.349618e+00  -1.310976e-17
   1.500000e-01  -1.348222e+00  -1.342774e-17
   1.510000e-01  -1.346818e+00  -1.377049e-17
   1.520000e-01  -1.345407e+00  -1.410698e-17
   1.530000e-01  -1.343987e+00  -1.447555e-17
   1.540000e-01  -1.342560e+00  -1.484325e-17
   1.550000e-01  -1.341126e+00  -1.520760e-17
   1.560000e-01  -1.339683e+00  -1.556445e-17
   1.570000e-01  -1.338233e+00  -1.597822e-17
   1.580000e-01  -1.336776e+00  -1.636178e-17
   1.590000e-01  -1.335311e+00  -1.673816e-17
   1.600000e-01  -1.333838e+00  -1.715598e-17
   1.610000e-01  -1.332358e+00  -1.757039e-17
   1.620000e-01  -1.330871e+00  -1.800510e-17
   1.630000e-01  -1.329376e+00  -1.840960e-17
   1.640000e-01  -1.327874e+00  -1.884998e-17
   1.650000e-01  -1.326364e+00  -1.928661e-17
   1.660000e-01  -1.324847e+00  -1.973838e-17
   1.670000e-01  -1.323323e+00  -2.021024e-17
   1.680000e-01  -1.321792e+00  -2.067318e-17
   1.690000e-01  -1.320253e+00  -2.116405e-17
   1.700000e-01  -1.318707e+00  -2.163572e-17
   1.710000e-01  -1.317154e+00  -2.213738e-17
   1.720000e-01  -1.315594e+00  -2.263958e-17
   1.730000e-01  -1.314027e+00  -2.313979e-17
   1.740000e-01  -1.312452e+00  -2.365577e-17
   1.750000e-01  -1.310871e+00  -2.419966e-17
   1.760000e-01  -1.309283e+00  -2.471880e-17
   1.770000e-01  -1.307687e+00  -2.526693e-17
   1.780000e-01  -1.306085e+00  -2.585813e-17
   1.790000e-01  -1.304476e+00  -2.643208e-17
   1.800000e-01  -1.302860e+00  -2.698406e-17
   1.810000e-01  -1.301237e+00  -2.756849e-17
   1.820000e-01  -1.299607e+00  -2.816677e-17
   1.830000e-01  -1.297971e+00  -2.879740e-17
   1.840000e-01  -1.296328e+00  -2.940973e-17
   1.850000e-01  -1.294678e+00  -3.004285e-17
   1.860000e-01  -1.293021e+00  -3.067993e-17
   1.870000e-01  -1.291358e+00  -3.132672e-17
   1.880000e-01  -1.289688e+00  -3.197446e-17
   1.890000e-01  -1.288011e+00  -3.265873e-17
   1.900000e-01  -1.286328e+00  -3.333456e-17
   1.910000e-01  -1.284639e+00  -3.403198e-17
   1.920000e-01  -1.282943e+00  -3.474114e-17
   1.930000e-01  -1.281240e+00  -3.544341e-17
   1.940000e-01  -1.279531e+00  -3.617131e-17
   1.950000e-01  -1.277816e+00  -3.688239e-17
   1.960000e-01  -1.276094e+00  -3.764883e-17
   1.970000e-01  -1.274366e+00  -3.840177e-17
   1.980000e-01  -1.272632e+00  -3.918734e-17
   1.990000e-01  -1.270892e+00  -3.996248e-17
   2.000000e-01  -1.269145e+00  -4.077787e-17
   2.010000e-01  -1.267392e+00  -4.157009e-17
   2.020000e-01  -1.265633e+00  -4.238347e-17
   2.030000e-01  -1.263868e+00  -4.324130e-17
   2.040000e-01  -1.262097e+00  -4.407267e-17
   2.050000e-01  -1.260320e+00  -4.492316e-17
   2.060000e-01  -1.258536e+00  -4.579418e-17
   2.070000e-01  -1.256747e+00  -4.667545e-17
   2.080000e-01  -1.254952e+00  -4.759069e-17
   2.090000e-01  -1.253151e+00  -4.850522e-17
   2.100000e-01  -1.251344e+00  -4.940076e-17
   2.110000e-01  -1.249531e+00  -5.036100e-17
   2.120000e-01  -1.247713e+00  -5.131893e-17
   2.130000e-01  -1.245888e+00  -5.227841e-17
   2.140000e-01  -1.244058e+00  -5.325201e-17
   2.150000e-01  -1.242222e+00  -5.424897e-17
   2.160000e-01  -1.240381e+00  -5.524937e-17
   2.170000e-01  -1.238534e+00  -5.625710e-17
   2.180000e-01  -1.236681e+00  -5.729132e-17
   2.190000e-01  -1.234823e+00  -5.834587e-17
   2.200000e-01  -1.232959e+00  -5.939291e-17
   2.210000e-01  -1.231090e+00  -6.048416e-17
   2.220000e-01  -1.229215e+00  -6.156581e-17
   2.230000e-01  -1.227335e+00  -6.265784e-17
   2.240000e-01  -1.225450e+00  -6.378510e-17
   2.250000e-01  -1.223559e+00  -6.493194e-17
   2.260000e-01  -1.221663e+00  -6.607796e-17
   2.270000e-01  -1.219761e+00  -6.723986e-17
   2.280000e-01  -1.217855e+00  -6.841148e-17
   2.290000e-01  -1.215943e+00  -6.960003e-17
   2.300000e-01  -1.214026e+00  -7.080522e-17
   2.310000e-01  -1.212104e+00  -7.204489e-17
   2.320000e-01  -1.210176e+00  -7.328597e-17
   2.330000e-01  -1.208244e+00  -7.452430e-17
   2.340000e-01  -1.206307e+00  -7.580795e-17
   2.350000e-01  -1.204364e+00  -7.709975e-17
   2.360000e-01  -1.202417e+00  -7.839869e-17
   2.370000e-01  -1.200465e+00  -7.970990e-17
   2.380000e-01  -1.198508e+00  -8.104906e-17
   2.390000e-01  -1.196546e+00  -8.240052e-17
   2.400000e-01  -1.194579e+00  -8.377593e-17
   2.410000e-01  -1.192607e+00  -8.516323e-17
   2.420000e-01  -1.190631e+00  -8.654820e-17
   2.430000e-01  -1.188650e+00  -8.795221e-17
   2.440000e-01  -1.186664e+00  -8.939375e-17
   2.450000e-01  -1.184674e+00  -9.082377e-17
   2.460000e-01  -1.182679e+00  -9.229684e-17
   2.470000e-01  -1.180679e+00  -9.377513e-17
   2.480000e-01  -1.178675e+00  -9.527096e-17
   2.490000e-01  -1.176667e+00  -9.678771e-17
   2.500000e-01  -1.174654e+00  -9.831941e-17
   2.510000e-01  -1.172636e+00  -9.985293e-17
   2.520000e-01  -1.170614e+00  -1.014208e-16
   2.530000e-01  -1.168588e+00  -1.029918e-16
   2.540000e-01  -1.166558e+00  -1.045890e-16
   2.550000e-01  -1.164523e+00  -1.062086e-16
   2.560000e-01  -1.162484e+00  -1.078129e-16
   2.570000e-01  -1.160441e+00  -1.094601e-16
   2.580000e-01  -1.158393e+00  -1.111304e-16
   2.590000e-01  -1.156342e+00  -1.128021e-16
   2.600000e-01  -1.154286e+00  -1.144917e-16
   2.610000e-01  -1.152226e+00  -1.162154e-16
   2.620000e-01  -1.150163e+00  -1.179374e-16
   2.630000e-01  -1.148095e+00  -1.196783e-16
   2.640000e-01  -1.146023e+00  -1.214295e-16
   2.650000e-01  -1.143947e+00  -1.232066e-16
   2.660000e-01  -1.141868e+00  -1.250014e-16
   2.670000e-01  -1.139785e+00  -1.267897e-16
   2.680000e-01  -1.137697e+00  -1.286192e-16
   2.690000e-01  -1.135606e+00  -1.304630e-16
   2.700000e-01  -1.133512e+00  -1.323141e-16
   2.710000e-01  -1.131413e+00  -1.341761e-16
   2.720000e-01  -1.129311e+00  -1.360712e-16
   2.730000e-01  -1.127205e+00  -1.379680e-16
   2.740000e-01  -1.125096e+00  -1.398772e-16
   2.750000e-01  -1.122983e+00  -1.418199e-16
   2.760000e-01  -1.120867e+00  -1.437567e-16
   2.770000e-01  -1.118747e+00  -1.457244e-16
   2.780000e-01  -1.116623e+00  -1.476895e-16
   2.790000e-01  -1.114496e+00  -1.496879e-16
   2.800000e-01  -1.112366e+00  -1.517035e-16
   2.810000e-01  -1.110233e+00  -1.537064e-16
   2.820000e-01  -1.108096e+00  -1.557506e-16
   2.830000e-01  -1.105955e+00  -1.577822e-16
   2.840000e-01  -1.103812e+00  -1.598401e-16
   2.850000e-01  -1.101665e+00  -1.619148e-16
   2.860000e-01  -1.099516e+00  -1.640032e-16
   2.870000e-01  -1.097363e+00  -1.661052e-16
   2.880000e-01  -1.095206e+00  -1.682188e-16
   2.890000e-01  -1.093047e+00  -1.703387e-16
   2.900000e-01  -1.090885e+00  -1.724750e-16
   2.910000e-01  -1.088720e+00  -1.746253e-16
   2.920000e-01  -1.086552e+00  -1.767751e-16
   2.930000e-01  -1.084381e+00  -1.789503e-16
   2.940000e-01  -1.082207e+00  -1.811295e-16
   2.950000e-01  -1.080030e+00  -1.833201e-16
   2.960000e-01  -1.077850e+00  -1.855131e-16
   2.970000e-01  -1.075667e+00  -1.877271e-16
   2.980000e-01  -1.073482e+00  -1.899480e-16
   2.990000e-01  -1.071294e+00  -1.921717e-16
   3.000000e-01  -1.069103e+00  -1.944126e-16
   3.010000e-01  -1.066910e+00  -1.966515e-16
   3.020000e-01  -1.064714e+00  -1.988972e-16
   3.030000e-01  -1.062516e+00  -2.011529e-16
   3.040000e-01  -1.060315e+00  -2.034228e-16
   3.050000e-01  -1.058111e+00  -2.056884e-16
   3.060000e-01  -1.055905e+00  -2.079644e-16
   3.070000e-01  -1.053696e+00  -2.102380e-16
   3.080000e-01  -1.051485e+00  -2.125262e-16
   3.090000e-01  -1.049272e+00  -2.148140e-16
   3.100000e-01  -1.047056e+00  -2.171134e-16
   3.110000e-01  -1.044838e+00  -2.193942e-16
   3.120000e-01  -1.042618e+00  -2.216896e-16
   3.130000e-01  -1.040396e+00  -2.239894e-16
   3.140000e-01  -1.038171e+00  -2.262742e-16
   3.150000e-01  -1.035944e+00  -2.285799e-16
   3.160000e-01  -1.033715e+00  -2.308701e-16
   3.170000e-01  -1.031484e+00  -2.331586e-16
   3.180000e-01  -1.029250e+00  -2.354444e-16
   3.190000e-01  -1.027015e+00  -2.377350e-16
   3.200000e-01  -1.024778e+00  -2.400213e-16
   3.210000e-01  -1.022539e+00  -2.422954e-16
   3.220000e-01  -1.020297e+00  -2.445718e-16
   3.230000e-01  -1.018054e+00  -2.468347e-16
   3.240000e-01  -1.015809e+00  -2.490907e-16
   3.250000e-01  -1.013563e+00  -2.513347e-16
   3.260000e-01  -1.011314e+00  -2.535738e-16
   3.270000e-01  -1.009064e+00  -2.558061e-16
   3.280000e-01  -1.006811e+00  -2.580184e-16
   3.290000e-01  -1.004558e+00  -2.602319e-16
   3.300000e-01  -1.002302e+00  -2.624195e-16
   3.310000e-01  -1.000045e+00  -2.645940e-16
   3.320000e-01  -9.977861e-01  -2.667627e-16
   3.330000e-01  -9.955258e-01  -2.689060e-16
   3.340000e-01  -9.932639e-01  -2.710252e-16
   3.350000e-01  -9.910005e-01  -2.731405e-16
   3.360000e-01  -9.887356e-01  -2.752372e-16
   3.370000e-01  -9.864693e-01  -2.772970e-16
   3.380000e-01  -9.842015e-01  -2.793418e-16
   3.390000e-01  -9.819324e-01  -2.813673e-16
   3.400000e-01  -9.796619e-01  -2.833695e-16
   3.410000e-01  -9.773902e-01  -2.853365e-16
   3.420000e-01  -9.751171e-01  -2.872722e-16
   3.430000e-01  -9.728428e-01  -2.891908e-16
   3.440000e-01  -9.705672e-01  -2.910777e-16
   3.450000e-01  -9.682905e-01  -2.929225e-16
   3.460000e-01  -9.660126e-01  -2.947413e-16
   3.470000e-01  -9.637336e-01  -2.965308e-16
   3.480000e-01  -9.614535e-01  -2.982748e-16
   3.490000e-01  -9.591723e-01  -2.999820e-16
   3.500000e-01  -9.568901e-01  -3.016500e-16
   3.510000e-01  -9.546069e-01  -3.032810e-16
   3.520000e-01  -9.523227e-01  -3.048682e-16
   3.530000e-01  -9.500376e-01  -3.064063e-16
   3.540000e-01  -9.477516e-01  -3.079059e-16
   3.550000e-01  -9.454647e-01  -3.093479e-16
   3.560000e-01  -9.431770e-01  -3.107508e-16
   3.570000e-01  -9.408884e-01  -3.120985e-16
   3.580000e-01  -9.385991e-01  -3.133968e-16
   3.590000e-01  -9.363090e-01  -3.146394e-16
   3.600000e-01  -9.340182e-01  -3.158234e-16
   3.610000e-01  -9.317267e-01  -3.169442e-16
   3.620000e-01  -9.294345e-01  -3.180154e-16
   3.630000e-01  -9.271417e-01  -3.190199e-16
   3.640000e-01  -9.248483e-01  -3.199761e-16
   3.650000e-01  -9.225544e-01  -3.208395e-16
   3.660000e-01  -9.202599e-01  -3.216457e-16
   3.670000e-01  -9.179649e-01  -3.223903e-16
   3.680000e-01  -9.156694e-01  -3.230554e-16
   3.690000e-01  -9.133734e-01  -3.236440e-16
   3.700000e-01  -9.110771e-01  -3.241629e-16
   3.710000e-01  -9.087803e-01  -3.246052e-16
   3.720000e-01  -9.064832e-01  -3.249523e-16
   3.730000e-01  -9.041857e-01  -3.252296e-16
   3.740000e-01  -9.018880e-01  -3.254241e-16
   3.750000e-01  -8.995900e-01  -3.255296e-16
   3.760000e-01  -8.972917e-01  -3.255438e-16
   3.770000e-01  -8.949932e-01  -3.254677e-16
   3.780000e-01  -8.926945e-01  -3.252955e-16
   3.790000e-01  -8.903957e-01  -3.250393e-16
   3.800000e-01  -8.880967e-01  -3.246737e-16
   3.810000e-01  -8.857976e-01  -3.242095e-16
   3.820000e-01  -8.834985e-01  -3.236473e-16
   3.830000e-01  -8.811993e-01  -3.229753e-16
   3.840000e-01  -8.789001e-01  -3.221983e-16
   3.850000e-01  -8.766009e-01  -3.213128e-16
   3.860000e-01  -8.743018e-01  -3.203221e-16
   3.870000e-01  -8.720027e-01  -3.192055e-16
   3.880000e-01  -8.697037e-01  -3.179761e-16
   3.890000e-01  -8.674049e-01  -3.166257e-16
   3.900000e-01  -8.651061e-01  -3.151671e-16
   3.910000e-01  -8.628076e-01  -3.135724e-16
   3.920000e-01  -8.605093e-01  -3.118577e-16
   3.930000e-01  -8.582112e-01  -3.100145e-16
   3.940000e-01  -8.559134e-01  -3.080321e-16
   3.950000e-01  -8.536158e-01  -3.059247e-16
   3.960000e-01  -8.513186e-01  -3.036848e-16
   3.970000e-01  -8.490217e-01  -3.013021e-16
   3.980000e-01  -8.467252e-01  -2.987750e-16
   3.990000e-01  -8.444291e-01  -2.961147e-16
   4.000000e-01  -8.421334e-01  -2.933089e-16
   4.010000e-01  -8.398381e-01  -2.903512e-16
   4.020000e-01  -8.375434e-01  -2.872497e-16
   4.030000e-01  -8.352491e-01  -2.839915e-16
   4.040000e-01  -8.329554e-01  -2.805880e-16
   4.050000e-01  -8.306622e-01  -2.770138e-16
   4.060000e-01  -8.283696e-01  -2.732961e-16
   4.070000e-01  -8.260776e-01  -2.694210e-16
   4.080000e-01  -8.237862e-01  -2.653784e-16
   4.090000e-01  -8.214955e-01  -2.611687e-16
   4.100000e-01  -8.192055e-01  -2.567956e-16
   4.110000e-01  -8.169161e-01  -2.522572e-16
   4.120000e-01  -8.146275e-01  -2.475493e-16
   4.130000e-01  -8.123397e-01  -2.426653e-16
   4.140000e-01  -8.100527e-01  -2.376173e-16
   4.150000e-01  -8.077664e-01  -2.323891e-16
   4.160000e-01  -8.054810e-01  -2.269820e-16
   4.170000e-01  -8.031965e-01  -2.214065e-16
   4.180000e-01  -8.009128e-01  -2.156473e-16
   4.190000e-01  -7.986301e-01  -2.097041e-16
   4.200000e-01  -7.963483e-01  -2.035785e-16
   4.210000e-01  -7.940674e-01  -1.972780e-16
   4.220000e-01  -7.917875e-01  -1.907968e-16
   4.230000e-01  -7.895086e-01  -1.841222e-16
   4.240000e-01  -7.872308e-01  -1.772674e-16
   4.250000e-01  -7.849540e-01  -1.702280e-16
   4.260000e-01  -7.826783e-01  -1.630020e-16
   4.270000e-01  -7.804037e-01  -1.555824e-16
   4.280000e-01  -7.781302e-01  -1.479893e-16
   4.290000e-01  -7.758578e-01  -1.401963e-16
   4.300000e-01  -7.735867e-01  -1.322250e-16
   4.310000e-01  -7.713167e-01  -1.240627e-16
   4.320000e-01  -7.690479e-01  -1.157196e-16
